,Size,Bandwidth (MB/s)
0,1.0,2.52
1,2.0,6.75
2,4.0,16.03
3,8.0,35.92
4,16.0,95.98
5,32.0,215.15
6,64.0,300.67
7,128.0,526.46
8,256.0,1129.38
9,512.0,2299.61
10,1024.0,4375.96
11,2048.0,7687.79
12,4096.0,6381.66
13,8192.0,10914.41
14,16384.0,13150.18
15,32768.0,21241.68
16,65536.0,26159.63
17,131072.0,30981.19
18,262144.0,25362.5
19,524288.0,23341.25
20,1048576.0,18255.77
21,2097152.0,7265.99
22,4194304.0,5972.25
