,Size,Bandwidth (MB/s)
0,1.0,0.25
1,2.0,0.56
2,4.0,1.17
3,8.0,2.42
4,16.0,4.83
5,32.0,9.48
6,64.0,17.66
7,128.0,35.44
8,256.0,72.63
9,512.0,129.96
10,1024.0,267.01
11,2048.0,450.54
12,4096.0,884.33
13,8192.0,1574.17
14,16384.0,2106.33
15,32768.0,2554.45
16,65536.0,2167.83
17,131072.0,2638.31
18,262144.0,3488.56
19,524288.0,3652.06
20,1048576.0,4051.28
21,2097152.0,3897.03
22,4194304.0,3353.01
